D:\XRDmacros\chiplotter/LaB6_0003.mar3450: Azimuth/2-theta
2-Theta Angle (Degrees)

       1500
 7.1955997E-01  1.7697741E+01
 7.2662121E-01  1.8032085E+01
 7.3368245E-01  1.7949774E+01
 7.4074370E-01  1.7729774E+01
 7.4780500E-01  1.7896614E+01
 7.5486624E-01  1.7939751E+01
 7.6192749E-01  1.8012751E+01
 7.6898879E-01  1.8149725E+01
 7.7605003E-01  1.8402372E+01
 7.8311127E-01  1.8292551E+01
 7.9017258E-01  1.8233706E+01
 7.9723382E-01  1.8312656E+01
 8.0429506E-01  1.8279446E+01
 8.1135637E-01  1.8455458E+01
 8.1841761E-01  1.8422949E+01
 8.2547885E-01  1.8585150E+01
 8.3254015E-01  1.8558073E+01
 8.3960140E-01  1.8650871E+01
 8.4666264E-01  1.8631653E+01
 8.5372394E-01  1.8710300E+01
 8.6078519E-01  1.8888992E+01
 8.6784643E-01  1.9043072E+01
 8.7490773E-01  1.9054342E+01
 8.8196898E-01  1.9195961E+01
 8.8903022E-01  1.9166935E+01
 8.9609146E-01  1.9190350E+01
 9.0315276E-01  1.9373957E+01
 9.1021401E-01  1.9437519E+01
 9.1727525E-01  1.9502890E+01
 9.2433655E-01  1.9568207E+01
 9.3139780E-01  1.9619972E+01
 9.3845904E-01  1.9654268E+01
 9.4552034E-01  1.9873785E+01
 9.5258158E-01  2.0343019E+01
 9.5964283E-01  2.0399023E+01
 9.6670413E-01  1.9932467E+01
 9.7376537E-01  2.0067049E+01
 9.8082662E-01  1.9957390E+01
 9.8788792E-01  1.9621513E+01
 9.9494916E-01  1.9680248E+01
 1.0020105E+00  1.9617435E+01
 1.0090717E+00  1.9410200E+01
 1.0161330E+00  1.9543650E+01
 1.0231942E+00  1.9501827E+01
 1.0302554E+00  1.9567528E+01
 1.0373167E+00  1.9666676E+01
 1.0443780E+00  1.9895395E+01
 1.0514393E+00  2.0137674E+01
 1.0585005E+00  2.0066925E+01
 1.0655618E+00  1.9960821E+01
 1.0726230E+00  1.9791937E+01
 1.0796843E+00  1.9595713E+01
 1.0867456E+00  1.9659719E+01
 1.0938069E+00  1.9683929E+01
 1.1008681E+00  1.9768827E+01
 1.1079293E+00  1.9787130E+01
 1.1149906E+00  1.9523315E+01
 1.1220518E+00  1.9606373E+01
 1.1291131E+00  1.9821396E+01
 1.1361744E+00  1.9879053E+01
 1.1432357E+00  2.0048384E+01
 1.1502969E+00  2.0166012E+01
 1.1573582E+00  2.0221035E+01
 1.1644194E+00  2.0130873E+01
 1.1714807E+00  2.0047447E+01
 1.1785420E+00  2.0096792E+01
 1.1856033E+00  2.0198484E+01
 1.1926645E+00  2.0073196E+01
 1.1997257E+00  2.0111443E+01
 1.2067870E+00  2.0104368E+01
 1.2138482E+00  2.0219288E+01
 1.2209096E+00  2.0236597E+01
 1.2279708E+00  2.0155603E+01
 1.2350321E+00  2.0135185E+01
 1.2420933E+00  2.0169849E+01
 1.2491546E+00  2.0214798E+01
 1.2562158E+00  2.0361475E+01
 1.2632772E+00  2.0408167E+01
 1.2703384E+00  2.0304394E+01
 1.2773997E+00  2.0602985E+01
 1.2844609E+00  2.0820688E+01
 1.2915221E+00  2.0707157E+01
 1.2985834E+00  2.0571047E+01
 1.3056446E+00  2.0344992E+01
 1.3127060E+00  2.0288004E+01
 1.3197672E+00  2.0321409E+01
 1.3268285E+00  2.0392952E+01
 1.3338897E+00  2.0506428E+01
 1.3409510E+00  2.0395737E+01
 1.3480122E+00  2.0605373E+01
 1.3550736E+00  2.0868265E+01
 1.3621348E+00  2.0897499E+01
 1.3691961E+00  2.0877016E+01
 1.3762573E+00  2.1002443E+01
 1.3833185E+00  2.0978384E+01
 1.3903798E+00  2.0984804E+01
 1.3974411E+00  2.0804115E+01
 1.4045024E+00  2.0860796E+01
 1.4115636E+00  2.0993031E+01
 1.4186249E+00  2.1052128E+01
 1.4256861E+00  2.1177725E+01
 1.4327474E+00  2.1308140E+01
 1.4398086E+00  2.1306040E+01
 1.4468700E+00  2.1133780E+01
 1.4539312E+00  2.1007217E+01
 1.4609925E+00  2.0832809E+01
 1.4680537E+00  2.0929531E+01
 1.4751149E+00  2.0920532E+01
 1.4821762E+00  2.1050251E+01
 1.4892375E+00  2.1225481E+01
 1.4962988E+00  2.1054390E+01
 1.5033600E+00  2.0872459E+01
 1.5104213E+00  2.0822056E+01
 1.5174825E+00  2.0728708E+01
 1.5245438E+00  2.0903942E+01
 1.5316051E+00  2.0981474E+01
 1.5386664E+00  2.1060699E+01
 1.5457276E+00  2.1022854E+01
 1.5527889E+00  2.1161022E+01
 1.5598501E+00  2.1261591E+01
 1.5669113E+00  2.1130980E+01
 1.5739727E+00  2.0915930E+01
 1.5810339E+00  2.0781105E+01
 1.5880952E+00  2.0849592E+01
 1.5951564E+00  2.1052912E+01
 1.6022177E+00  2.1226372E+01
 1.6092789E+00  2.1165415E+01
 1.6163402E+00  2.1158487E+01
 1.6234015E+00  2.1286406E+01
 1.6304628E+00  2.1365273E+01
 1.6375240E+00  2.1348385E+01
 1.6445853E+00  2.1170931E+01
 1.6516465E+00  2.1285252E+01
 1.6587077E+00  2.1415361E+01
 1.6657691E+00  2.1481945E+01
 1.6728303E+00  2.1403067E+01
 1.6798916E+00  2.1419180E+01
 1.6869528E+00  2.1406561E+01
 1.6940141E+00  2.1540144E+01
 1.7010753E+00  2.1599489E+01
 1.7081367E+00  2.1660748E+01
 1.7151979E+00  2.1737268E+01
 1.7222592E+00  2.1789074E+01
 1.7293204E+00  2.1843096E+01
 1.7363816E+00  2.1816568E+01
 1.7434429E+00  2.1904936E+01
 1.7505041E+00  2.1865261E+01
 1.7575655E+00  2.1647316E+01
 1.7646267E+00  2.1466028E+01
 1.7716880E+00  2.1707779E+01
 1.7787492E+00  2.1784523E+01
 1.7858105E+00  2.1591009E+01
 1.7928717E+00  2.1452806E+01
 1.7999331E+00  2.1347315E+01
 1.8069943E+00  2.1515112E+01
 1.8140556E+00  2.1551805E+01
 1.8211168E+00  2.1430923E+01
 1.8281780E+00  2.1602800E+01
 1.8352393E+00  2.1677568E+01
 1.8423007E+00  2.1682318E+01
 1.8493619E+00  2.1709871E+01
 1.8564231E+00  2.1548288E+01
 1.8634844E+00  2.1373280E+01
 1.8705456E+00  2.1581322E+01
 1.8776069E+00  2.1783209E+01
 1.8846682E+00  2.1834288E+01
 1.8917295E+00  2.1725708E+01
 1.8987907E+00  2.1852909E+01
 1.9058520E+00  2.1893063E+01
 1.9129132E+00  2.1921278E+01
 1.9199744E+00  2.1777493E+01
 1.9270357E+00  2.1652853E+01
 1.9340971E+00  2.1546690E+01
 1.9411583E+00  2.1506628E+01
 1.9482195E+00  2.1488964E+01
 1.9552808E+00  2.1456963E+01
 1.9623420E+00  2.1450016E+01
 1.9694033E+00  2.1534229E+01
 1.9764646E+00  2.1698673E+01
 1.9835259E+00  2.1792135E+01
 1.9905871E+00  2.1800047E+01
 1.9976484E+00  2.1880411E+01
 2.0047097E+00  2.1727888E+01
 2.0117710E+00  2.1714844E+01
 2.0188322E+00  2.1661444E+01
 2.0258934E+00  2.1692709E+01
 2.0329547E+00  2.1791210E+01
 2.0400159E+00  2.1868542E+01
 2.0470772E+00  2.1690399E+01
 2.0541384E+00  2.1733311E+01
 2.0611997E+00  2.1759497E+01
 2.0682609E+00  2.1670292E+01
 2.0753222E+00  2.1693617E+01
 2.0823834E+00  2.1675724E+01
 2.0894449E+00  2.1679148E+01
 2.0965061E+00  2.1644466E+01
 2.1035674E+00  2.1619087E+01
 2.1106286E+00  2.1670477E+01
 2.1176898E+00  2.1494873E+01
 2.1247511E+00  2.1395561E+01
 2.1318123E+00  2.1411148E+01
 2.1388736E+00  2.1250614E+01
 2.1459348E+00  2.1206631E+01
 2.1529961E+00  2.1250439E+01
 2.1600573E+00  2.1256348E+01
 2.1671185E+00  2.1304897E+01
 2.1741800E+00  2.1323606E+01
 2.1812413E+00  2.1398247E+01
 2.1883025E+00  2.1442122E+01
 2.1953638E+00  2.1362825E+01
 2.2024250E+00  2.1547340E+01
 2.2094862E+00  2.1702850E+01
 2.2165475E+00  2.1616673E+01
 2.2236087E+00  2.1602331E+01
 2.2306700E+00  2.1546438E+01
 2.2377312E+00  2.1609900E+01
 2.2447925E+00  2.1788412E+01
 2.2518537E+00  2.1698959E+01
 2.2589149E+00  2.1659897E+01
 2.2659764E+00  2.1708460E+01
 2.2730377E+00  2.1635902E+01
 2.2800989E+00  2.1639296E+01
 2.2871602E+00  2.1635044E+01
 2.2942214E+00  2.1518061E+01
 2.3012826E+00  2.1577667E+01
 2.3083439E+00  2.1683167E+01
 2.3154051E+00  2.1662605E+01
 2.3224664E+00  2.1665871E+01
 2.3295276E+00  2.1629515E+01
 2.3365889E+00  2.1637203E+01
 2.3436501E+00  2.1630985E+01
 2.3507116E+00  2.1748268E+01
 2.3577728E+00  2.1728228E+01
 2.3648341E+00  2.1678381E+01
 2.3718953E+00  2.1574614E+01
 2.3789566E+00  2.1562685E+01
 2.3860178E+00  2.1634876E+01
 2.3930790E+00  2.1753946E+01
 2.4001403E+00  2.1763441E+01
 2.4072015E+00  2.1701185E+01
 2.4142628E+00  2.1752073E+01
 2.4213240E+00  2.1742329E+01
 2.4283853E+00  2.1661558E+01
 2.4354465E+00  2.1720514E+01
 2.4425080E+00  2.1854116E+01
 2.4495692E+00  2.1707474E+01
 2.4566305E+00  2.1657627E+01
 2.4636917E+00  2.1724579E+01
 2.4707530E+00  2.1640526E+01
 2.4778142E+00  2.1482143E+01
 2.4848754E+00  2.1564142E+01
 2.4919367E+00  2.1553858E+01
 2.4989979E+00  2.1727604E+01
 2.5060592E+00  2.1936331E+01
 2.5131204E+00  2.1932243E+01
 2.5201817E+00  2.1767580E+01
 2.5272429E+00  2.1530951E+01
 2.5343044E+00  2.1396994E+01
 2.5413656E+00  2.1462753E+01
 2.5484269E+00  2.1536875E+01
 2.5554881E+00  2.1626816E+01
 2.5625494E+00  2.1604986E+01
 2.5696106E+00  2.1494890E+01
 2.5766718E+00  2.1613754E+01
 2.5837331E+00  2.1634821E+01
 2.5907943E+00  2.1567698E+01
 2.5978556E+00  2.1525030E+01
 2.6049168E+00  2.1560556E+01
 2.6119781E+00  2.1526638E+01
 2.6190395E+00  2.1556505E+01
 2.6261008E+00  2.1653915E+01
 2.6331620E+00  2.1686550E+01
 2.6402233E+00  2.1682865E+01
 2.6472845E+00  2.1509113E+01
 2.6543458E+00  2.1597052E+01
 2.6614070E+00  2.1607283E+01
 2.6684682E+00  2.1684143E+01
 2.6755295E+00  2.1685835E+01
 2.6825907E+00  2.1679451E+01
 2.6896520E+00  2.1757055E+01
 2.6967132E+00  2.1748297E+01
 2.7037745E+00  2.1710016E+01
 2.7108359E+00  2.1662827E+01
 2.7178972E+00  2.1726645E+01
 2.7249584E+00  2.1812897E+01
 2.7320197E+00  2.1791632E+01
 2.7390809E+00  2.1708700E+01
 2.7461421E+00  2.1697441E+01
 2.7532034E+00  2.1667202E+01
 2.7602646E+00  2.1694551E+01
 2.7673259E+00  2.1762085E+01
 2.7743871E+00  2.1860680E+01
 2.7814484E+00  2.1811010E+01
 2.7885096E+00  2.1706240E+01
 2.7955711E+00  2.1781763E+01
 2.8026323E+00  2.1826311E+01
 2.8096936E+00  2.1793280E+01
 2.8167548E+00  2.1720585E+01
 2.8238161E+00  2.1886013E+01
 2.8308773E+00  2.1897434E+01
 2.8379385E+00  2.1978342E+01
 2.8449998E+00  2.1827091E+01
 2.8520610E+00  2.1938063E+01
 2.8591223E+00  2.2028387E+01
 2.8661835E+00  2.2020580E+01
 2.8732448E+00  2.2018862E+01
 2.8803060E+00  2.2161703E+01
 2.8873675E+00  2.1983776E+01
 2.8944287E+00  2.1945028E+01
 2.9014900E+00  2.2030943E+01
 2.9085512E+00  2.2084684E+01
 2.9156125E+00  2.2159124E+01
 2.9226737E+00  2.2161917E+01
 2.9297349E+00  2.2065109E+01
 2.9367962E+00  2.1939497E+01
 2.9438574E+00  2.1859076E+01
 2.9509187E+00  2.1895266E+01
 2.9579799E+00  2.1877575E+01
 2.9650412E+00  2.1854277E+01
 2.9721024E+00  2.1910610E+01
 2.9791639E+00  2.2025311E+01
 2.9862251E+00  2.2103964E+01
 2.9932864E+00  2.2032188E+01
 3.0003476E+00  2.1883938E+01
 3.0074089E+00  2.1950296E+01
 3.0144701E+00  2.1938025E+01
 3.0215313E+00  2.1954489E+01
 3.0285926E+00  2.1934126E+01
 3.0356538E+00  2.1993855E+01
 3.0427151E+00  2.2132761E+01
 3.0497763E+00  2.2277348E+01
 3.0568376E+00  2.2320103E+01
 3.0638990E+00  2.2220699E+01
 3.0709603E+00  2.2030144E+01
 3.0780215E+00  2.1965183E+01
 3.0850828E+00  2.1935783E+01
 3.0921440E+00  2.1884691E+01
 3.0992053E+00  2.2065369E+01
 3.1062665E+00  2.2244734E+01
 3.1133277E+00  2.2186741E+01
 3.1203890E+00  2.2174992E+01
 3.1274502E+00  2.2086279E+01
 3.1345115E+00  2.2218023E+01
 3.1415727E+00  2.2479202E+01
 3.1486340E+00  2.3239811E+01
 3.1556954E+00  2.5439838E+01
 3.1627567E+00  3.0384176E+01
 3.1698179E+00  3.5962387E+01
 3.1768792E+00  3.8164219E+01
 3.1839404E+00  3.6431286E+01
 3.1910017E+00  3.2589409E+01
 3.1980629E+00  2.8604332E+01
 3.2051241E+00  2.5410522E+01
 3.2121854E+00  2.3581566E+01
 3.2192466E+00  2.2823435E+01
 3.2263079E+00  2.2477129E+01
 3.2333691E+00  2.2356279E+01
 3.2404306E+00  2.2344410E+01
 3.2474918E+00  2.2278448E+01
 3.2545531E+00  2.2276316E+01
 3.2616143E+00  2.2084146E+01
 3.2686756E+00  2.1934895E+01
 3.2757368E+00  2.1845106E+01
 3.2827981E+00  2.1754848E+01
 3.2898593E+00  2.1814083E+01
 3.2969205E+00  2.1837597E+01
 3.3039818E+00  2.1601046E+01
 3.3110430E+00  2.1539427E+01
 3.3181043E+00  2.1617882E+01
 3.3251655E+00  2.1675690E+01
 3.3322270E+00  2.1663582E+01
 3.3392882E+00  2.1627636E+01
 3.3463495E+00  2.1575573E+01
 3.3534107E+00  2.1576675E+01
 3.3604720E+00  2.1648405E+01
 3.3675332E+00  2.1489166E+01
 3.3745944E+00  2.1434502E+01
 3.3816557E+00  2.1429266E+01
 3.3887169E+00  2.1339401E+01
 3.3957782E+00  2.1388136E+01
 3.4028394E+00  2.1400982E+01
 3.4099007E+00  2.1462425E+01
 3.4169621E+00  2.1570152E+01
 3.4240234E+00  2.1610111E+01
 3.4310846E+00  2.1592915E+01
 3.4381459E+00  2.1478930E+01
 3.4452071E+00  2.1338358E+01
 3.4522684E+00  2.1311850E+01
 3.4593296E+00  2.1315535E+01
 3.4663908E+00  2.1326014E+01
 3.4734521E+00  2.1240944E+01
 3.4805133E+00  2.1157469E+01
 3.4875746E+00  2.1132135E+01
 3.4946358E+00  2.1214037E+01
 3.5016971E+00  2.1207916E+01
 3.5087585E+00  2.1135944E+01
 3.5158198E+00  2.1203264E+01
 3.5228810E+00  2.1188559E+01
 3.5299423E+00  2.1156616E+01
 3.5370035E+00  2.1142141E+01
 3.5440648E+00  2.1163223E+01
 3.5511260E+00  2.0982212E+01
 3.5581872E+00  2.0985615E+01
 3.5652485E+00  2.1036264E+01
 3.5723097E+00  2.1024889E+01
 3.5793710E+00  2.0996355E+01
 3.5864322E+00  2.1010929E+01
 3.5934935E+00  2.0811401E+01
 3.6005549E+00  2.0777174E+01
 3.6076162E+00  2.0893475E+01
 3.6146774E+00  2.0970640E+01
 3.6217387E+00  2.0809895E+01
 3.6287999E+00  2.0722485E+01
 3.6358612E+00  2.0721523E+01
 3.6429224E+00  2.0841496E+01
 3.6499836E+00  2.0832888E+01
 3.6570449E+00  2.0803862E+01
 3.6641061E+00  2.0794804E+01
 3.6711674E+00  2.0737709E+01
 3.6782286E+00  2.0737648E+01
 3.6852901E+00  2.0842262E+01
 3.6923513E+00  2.0763308E+01
 3.6994126E+00  2.0682791E+01
 3.7064738E+00  2.0472109E+01
 3.7135351E+00  2.0372004E+01
 3.7205963E+00  2.0501558E+01
 3.7276576E+00  2.0617674E+01
 3.7347188E+00  2.0648127E+01
 3.7417800E+00  2.0657745E+01
 3.7488413E+00  2.0558416E+01
 3.7559025E+00  2.0509903E+01
 3.7629638E+00  2.0432367E+01
 3.7700250E+00  2.0320923E+01
 3.7770865E+00  2.0414217E+01
 3.7841477E+00  2.0387314E+01
 3.7912090E+00  2.0240156E+01
 3.7982702E+00  2.0189253E+01
 3.8053315E+00  2.0133474E+01
 3.8123927E+00  2.0155920E+01
 3.8194540E+00  2.0271290E+01
 3.8265152E+00  2.0282156E+01
 3.8335764E+00  2.0292223E+01
 3.8406377E+00  2.0312580E+01
 3.8476989E+00  2.0195137E+01
 3.8547602E+00  2.0018555E+01
 3.8618217E+00  2.0047934E+01
 3.8688829E+00  2.0008007E+01
 3.8759441E+00  1.9996094E+01
 3.8830054E+00  2.0047106E+01
 3.8900666E+00  2.0055185E+01
 3.8971279E+00  2.0077858E+01
 3.9041891E+00  2.0076580E+01
 3.9112504E+00  1.9998087E+01
 3.9183116E+00  1.9936178E+01
 3.9253728E+00  2.0025938E+01
 3.9324341E+00  2.0027166E+01
 3.9394953E+00  2.0001863E+01
 3.9465566E+00  2.0027828E+01
 3.9536180E+00  1.9977421E+01
 3.9606793E+00  1.9876253E+01
 3.9677405E+00  1.9969952E+01
 3.9748018E+00  1.9911638E+01
 3.9818630E+00  1.9950375E+01
 3.9889243E+00  1.9960772E+01
 3.9959855E+00  1.9886820E+01
 4.0030470E+00  1.9793497E+01
 4.0101080E+00  1.9766716E+01
 4.0171695E+00  1.9639616E+01
 4.0242305E+00  1.9580877E+01
 4.0312920E+00  1.9634293E+01
 4.0383530E+00  1.9703878E+01
 4.0454144E+00  1.9734083E+01
 4.0524755E+00  1.9779072E+01
 4.0595369E+00  1.9609539E+01
 4.0665979E+00  1.9498196E+01
 4.0736594E+00  1.9565769E+01
 4.0807204E+00  1.9520067E+01
 4.0877819E+00  1.9558834E+01
 4.0948434E+00  1.9649244E+01
 4.1019044E+00  1.9608944E+01
 4.1089659E+00  1.9501711E+01
 4.1160269E+00  1.9349720E+01
 4.1230884E+00  1.9253864E+01
 4.1301494E+00  1.9150806E+01
 4.1372108E+00  1.9183884E+01
 4.1442719E+00  1.9251291E+01
 4.1513333E+00  1.9322176E+01
 4.1583943E+00  1.9404629E+01
 4.1654558E+00  1.9411234E+01
 4.1725173E+00  1.9453974E+01
 4.1795783E+00  1.9399893E+01
 4.1866398E+00  1.9455776E+01
 4.1937008E+00  1.9524815E+01
 4.2007623E+00  1.9483833E+01
 4.2078233E+00  1.9477194E+01
 4.2148848E+00  1.9473461E+01
 4.2219458E+00  1.9417646E+01
 4.2290072E+00  1.9314684E+01
 4.2360682E+00  1.9304188E+01
 4.2431297E+00  1.9293150E+01
 4.2501907E+00  1.9369965E+01
 4.2572522E+00  1.9437876E+01
 4.2643137E+00  1.9319204E+01
 4.2713747E+00  1.9347057E+01
 4.2784362E+00  1.9341181E+01
 4.2854972E+00  1.9189943E+01
 4.2925587E+00  1.9032000E+01
 4.2996197E+00  1.9022482E+01
 4.3066812E+00  1.8995190E+01
 4.3137422E+00  1.9028299E+01
 4.3208036E+00  1.9025381E+01
 4.3278646E+00  1.9057844E+01
 4.3349261E+00  1.9043823E+01
 4.3419871E+00  1.9077093E+01
 4.3490486E+00  1.9063856E+01
 4.3561101E+00  1.9189884E+01
 4.3631711E+00  1.9215298E+01
 4.3702326E+00  1.9173136E+01
 4.3772936E+00  1.9183004E+01
 4.3843551E+00  1.9108778E+01
 4.3914161E+00  1.8993113E+01
 4.3984776E+00  1.8993099E+01
 4.4055386E+00  1.9087790E+01
 4.4126000E+00  1.9107277E+01
 4.4196610E+00  1.9141586E+01
 4.4267225E+00  1.9174923E+01
 4.4337835E+00  1.9160646E+01
 4.4408450E+00  1.9105610E+01
 4.4479065E+00  1.9120010E+01
 4.4549675E+00  1.9403776E+01
 4.4620290E+00  1.9902876E+01
 4.4690900E+00  2.1100719E+01
 4.4761515E+00  2.3720945E+01
 4.4832125E+00  2.8132822E+01
 4.4902740E+00  3.3871220E+01
 4.4973350E+00  3.8118256E+01
 4.5043964E+00  3.7950199E+01
 4.5114574E+00  3.3520329E+01
 4.5185189E+00  2.8104839E+01
 4.5255799E+00  2.3966187E+01
 4.5326414E+00  2.1526688E+01
 4.5397029E+00  2.0342621E+01
 4.5467639E+00  1.9798628E+01
 4.5538254E+00  1.9441603E+01
 4.5608864E+00  1.9260513E+01
 4.5679479E+00  1.9071093E+01
 4.5750089E+00  1.9032141E+01
 4.5820704E+00  1.8987640E+01
 4.5891314E+00  1.8920406E+01
 4.5961928E+00  1.8803083E+01
 4.6032538E+00  1.8763367E+01
 4.6103153E+00  1.8745058E+01
 4.6173768E+00  1.8701485E+01
 4.6244378E+00  1.8686243E+01
 4.6314993E+00  1.8789188E+01
 4.6385603E+00  1.8772301E+01
 4.6456218E+00  1.8768066E+01
 4.6526828E+00  1.8779919E+01
 4.6597443E+00  1.8632524E+01
 4.6668053E+00  1.8630085E+01
 4.6738667E+00  1.8635286E+01
 4.6809278E+00  1.8707663E+01
 4.6879892E+00  1.8581762E+01
 4.6950502E+00  1.8486252E+01
 4.7021117E+00  1.8470659E+01
 4.7091732E+00  1.8603611E+01
 4.7162342E+00  1.8666517E+01
 4.7232957E+00  1.8538219E+01
 4.7303567E+00  1.8479740E+01
 4.7374182E+00  1.8503820E+01
 4.7444792E+00  1.8464239E+01
 4.7515407E+00  1.8546041E+01
 4.7586017E+00  1.8589592E+01
 4.7656631E+00  1.8564451E+01
 4.7727242E+00  1.8507061E+01
 4.7797856E+00  1.8471989E+01
 4.7868466E+00  1.8408499E+01
 4.7939081E+00  1.8418301E+01
 4.8009696E+00  1.8381052E+01
 4.8080306E+00  1.8260019E+01
 4.8150921E+00  1.8106749E+01
 4.8221531E+00  1.8140144E+01
 4.8292146E+00  1.8224371E+01
 4.8362756E+00  1.8298985E+01
 4.8433371E+00  1.8426172E+01
 4.8503981E+00  1.8509050E+01
 4.8574595E+00  1.8396608E+01
 4.8645205E+00  1.8348339E+01
 4.8715820E+00  1.8281857E+01
 4.8786430E+00  1.8211145E+01
 4.8857045E+00  1.8215031E+01
 4.8927660E+00  1.8262157E+01
 4.8998270E+00  1.8354942E+01
 4.9068885E+00  1.8318527E+01
 4.9139495E+00  1.8317837E+01
 4.9210110E+00  1.8215212E+01
 4.9280720E+00  1.8094923E+01
 4.9351335E+00  1.8054705E+01
 4.9421945E+00  1.8070885E+01
 4.9492559E+00  1.8073805E+01
 4.9563169E+00  1.8030949E+01
 4.9633784E+00  1.8031616E+01
 4.9704394E+00  1.8030952E+01
 4.9775009E+00  1.8035591E+01
 4.9845624E+00  1.8046970E+01
 4.9916234E+00  1.8098679E+01
 4.9986849E+00  1.8035999E+01
 5.0057459E+00  1.7954363E+01
 5.0128074E+00  1.7959164E+01
 5.0198684E+00  1.8082058E+01
 5.0269299E+00  1.8117807E+01
 5.0339909E+00  1.8183874E+01
 5.0410523E+00  1.8209269E+01
 5.0481133E+00  1.8140343E+01
 5.0551748E+00  1.8018295E+01
 5.0622363E+00  1.7896835E+01
 5.0692973E+00  1.7884272E+01
 5.0763588E+00  1.7906103E+01
 5.0834198E+00  1.7958595E+01
 5.0904813E+00  1.8047718E+01
 5.0975423E+00  1.8040228E+01
 5.1046038E+00  1.8094662E+01
 5.1116648E+00  1.8014141E+01
 5.1187263E+00  1.7850363E+01
 5.1257873E+00  1.7821316E+01
 5.1328487E+00  1.7873419E+01
 5.1399097E+00  1.7821459E+01
 5.1469712E+00  1.7812632E+01
 5.1540327E+00  1.7816090E+01
 5.1610937E+00  1.7861948E+01
 5.1681552E+00  1.7858320E+01
 5.1752162E+00  1.7893019E+01
 5.1822777E+00  1.7926119E+01
 5.1893387E+00  1.7790621E+01
 5.1964002E+00  1.7742548E+01
 5.2034612E+00  1.7713219E+01
 5.2105227E+00  1.7728374E+01
 5.2175837E+00  1.7708508E+01
 5.2246451E+00  1.7744303E+01
 5.2317061E+00  1.7842363E+01
 5.2387676E+00  1.7837946E+01
 5.2458291E+00  1.7866987E+01
 5.2528901E+00  1.7843431E+01
 5.2599516E+00  1.7766550E+01
 5.2670126E+00  1.7744154E+01
 5.2740741E+00  1.7679649E+01
 5.2811351E+00  1.7647047E+01
 5.2881966E+00  1.7667479E+01
 5.2952576E+00  1.7641151E+01
 5.3023190E+00  1.7693695E+01
 5.3093801E+00  1.7779524E+01
 5.3164415E+00  1.7811357E+01
 5.3235025E+00  1.7824059E+01
 5.3305640E+00  1.7764118E+01
 5.3376255E+00  1.7727055E+01
 5.3446865E+00  1.7625277E+01
 5.3517480E+00  1.7541895E+01
 5.3588090E+00  1.7554291E+01
 5.3658705E+00  1.7633444E+01
 5.3729315E+00  1.7668821E+01
 5.3799930E+00  1.7677132E+01
 5.3870540E+00  1.7715012E+01
 5.3941154E+00  1.7725887E+01
 5.4011765E+00  1.7795958E+01
 5.4082379E+00  1.7792759E+01
 5.4152994E+00  1.7712404E+01
 5.4223604E+00  1.7695154E+01
 5.4294219E+00  1.7718916E+01
 5.4364829E+00  1.7726654E+01
 5.4435444E+00  1.7690195E+01
 5.4506054E+00  1.7750444E+01
 5.4576669E+00  1.7826544E+01
 5.4647279E+00  1.7947578E+01
 5.4717894E+00  1.8289972E+01
 5.4788504E+00  1.8855343E+01
 5.4859118E+00  2.0222298E+01
 5.4929729E+00  2.3128029E+01
 5.5000343E+00  2.6702980E+01
 5.5070958E+00  2.9098665E+01
 5.5141568E+00  2.9251684E+01
 5.5212183E+00  2.7175724E+01
 5.5282793E+00  2.4197956E+01
 5.5353408E+00  2.1503036E+01
 5.5424018E+00  1.9697296E+01
 5.5494633E+00  1.8653534E+01
 5.5565243E+00  1.8096272E+01
 5.5635858E+00  1.7705952E+01
 5.5706468E+00  1.7608709E+01
 5.5777082E+00  1.7687147E+01
 5.5847692E+00  1.7636120E+01
 5.5918307E+00  1.7555519E+01
 5.5988922E+00  1.7536785E+01
 5.6059532E+00  1.7581919E+01
 5.6130147E+00  1.7526821E+01
 5.6200757E+00  1.7585953E+01
 5.6271372E+00  1.7498600E+01
 5.6341982E+00  1.7403715E+01
 5.6412597E+00  1.7317606E+01
 5.6483207E+00  1.7358177E+01
 5.6553822E+00  1.7448874E+01
 5.6624432E+00  1.7421450E+01
 5.6695046E+00  1.7418604E+01
 5.6765656E+00  1.7307594E+01
 5.6836271E+00  1.7290596E+01
 5.6906886E+00  1.7305880E+01
 5.6977496E+00  1.7287792E+01
 5.7048111E+00  1.7266306E+01
 5.7118721E+00  1.7317944E+01
 5.7189336E+00  1.7307201E+01
 5.7259946E+00  1.7297386E+01
 5.7330561E+00  1.7232628E+01
 5.7401171E+00  1.7202412E+01
 5.7471786E+00  1.7249435E+01
 5.7542396E+00  1.7332361E+01
 5.7613010E+00  1.7336414E+01
 5.7683620E+00  1.7347105E+01
 5.7754235E+00  1.7272444E+01
 5.7824850E+00  1.7251631E+01
 5.7895460E+00  1.7318125E+01
 5.7966075E+00  1.7264101E+01
 5.8036685E+00  1.7263422E+01
 5.8107300E+00  1.7208691E+01
 5.8177910E+00  1.7094963E+01
 5.8248525E+00  1.7110270E+01
 5.8319135E+00  1.7062340E+01
 5.8389750E+00  1.7072432E+01
 5.8460360E+00  1.7209675E+01
 5.8530974E+00  1.7201979E+01
 5.8601589E+00  1.7162109E+01
 5.8672199E+00  1.7143799E+01
 5.8742814E+00  1.7126030E+01
 5.8813424E+00  1.7187675E+01
 5.8884039E+00  1.7229883E+01
 5.8954649E+00  1.7227394E+01
 5.9025264E+00  1.7152351E+01
 5.9095874E+00  1.7204210E+01
 5.9166489E+00  1.7226179E+01
 5.9237099E+00  1.7148743E+01
 5.9307714E+00  1.7012751E+01
 5.9378324E+00  1.6962509E+01
 5.9448938E+00  1.7071846E+01
 5.9519553E+00  1.7126186E+01
 5.9590163E+00  1.7161867E+01
 5.9660778E+00  1.7108572E+01
 5.9731388E+00  1.7082348E+01
 5.9802003E+00  1.7051531E+01
 5.9872613E+00  1.7120291E+01
 5.9943228E+00  1.7146730E+01
 6.0013838E+00  1.7178226E+01
 6.0084453E+00  1.7232365E+01
 6.0155063E+00  1.7191641E+01
 6.0225677E+00  1.7072855E+01
 6.0296288E+00  1.7072042E+01
 6.0366902E+00  1.7037512E+01
 6.0437517E+00  1.7059793E+01
 6.0508127E+00  1.7089056E+01
 6.0578742E+00  1.7098276E+01
 6.0649352E+00  1.7062477E+01
 6.0719967E+00  1.7124987E+01
 6.0790577E+00  1.7040686E+01
 6.0861192E+00  1.6960527E+01
 6.0931802E+00  1.7013533E+01
 6.1002417E+00  1.7191278E+01
 6.1073027E+00  1.7336323E+01
 6.1143641E+00  1.7359264E+01
 6.1214252E+00  1.7188179E+01
 6.1284866E+00  1.7060013E+01
 6.1355481E+00  1.7021683E+01
 6.1426091E+00  1.7070019E+01
 6.1496706E+00  1.7018993E+01
 6.1567316E+00  1.7019480E+01
 6.1637931E+00  1.7021090E+01
 6.1708541E+00  1.7026705E+01
 6.1779156E+00  1.6958807E+01
 6.1849766E+00  1.6914783E+01
 6.1920381E+00  1.6944021E+01
 6.1990991E+00  1.7003565E+01
 6.2061605E+00  1.7053461E+01
 6.2132215E+00  1.7066647E+01
 6.2202830E+00  1.6983896E+01
 6.2273445E+00  1.6965380E+01
 6.2344055E+00  1.6961605E+01
 6.2414670E+00  1.6932539E+01
 6.2485280E+00  1.6993361E+01
 6.2555895E+00  1.6960197E+01
 6.2626505E+00  1.7003532E+01
 6.2697120E+00  1.7012310E+01
 6.2767730E+00  1.7012674E+01
 6.2838345E+00  1.6959347E+01
 6.2908955E+00  1.6963898E+01
 6.2979569E+00  1.6950672E+01
 6.3050184E+00  1.6865204E+01
 6.3120794E+00  1.6880953E+01
 6.3191409E+00  1.6914007E+01
 6.3262019E+00  1.6967224E+01
 6.3332634E+00  1.7299618E+01
 6.3403244E+00  1.8094469E+01
 6.3473859E+00  1.9464939E+01
 6.3544469E+00  2.1193558E+01
 6.3615084E+00  2.2224812E+01
 6.3685694E+00  2.2160219E+01
 6.3756309E+00  2.1309460E+01
 6.3826919E+00  2.0085915E+01
 6.3897533E+00  1.8778233E+01
 6.3968148E+00  1.7860016E+01
 6.4038758E+00  1.7335726E+01
 6.4109373E+00  1.7009712E+01
 6.4179983E+00  1.6893143E+01
 6.4250598E+00  1.6855917E+01
 6.4321208E+00  1.6914911E+01
 6.4391823E+00  1.6851889E+01
 6.4462433E+00  1.6742577E+01
 6.4533048E+00  1.6702585E+01
 6.4603658E+00  1.6767342E+01
 6.4674273E+00  1.6792311E+01
 6.4744883E+00  1.6809858E+01
 6.4815497E+00  1.6825394E+01
 6.4886112E+00  1.6846050E+01
 6.4956722E+00  1.6840080E+01
 6.5027337E+00  1.6834303E+01
 6.5097947E+00  1.6805449E+01
 6.5168562E+00  1.6830032E+01
 6.5239172E+00  1.6831758E+01
 6.5309787E+00  1.6853386E+01
 6.5380397E+00  1.6846867E+01
 6.5451012E+00  1.6788128E+01
 6.5521622E+00  1.6723074E+01
 6.5592237E+00  1.6676701E+01
 6.5662847E+00  1.6721050E+01
 6.5733461E+00  1.6734985E+01
 6.5804076E+00  1.6713547E+01
 6.5874686E+00  1.6730717E+01
 6.5945301E+00  1.6784374E+01
 6.6015911E+00  1.6706877E+01
 6.6086526E+00  1.6712698E+01
 6.6157136E+00  1.6735453E+01
 6.6227751E+00  1.6708797E+01
 6.6298361E+00  1.6705986E+01
 6.6368976E+00  1.6685013E+01
 6.6439586E+00  1.6670715E+01
 6.6510201E+00  1.6657070E+01
 6.6580811E+00  1.6698114E+01
 6.6651425E+00  1.6766108E+01
 6.6722040E+00  1.6707132E+01
 6.6792650E+00  1.6649855E+01
 6.6863265E+00  1.6682880E+01
 6.6933875E+00  1.6729483E+01
 6.7004490E+00  1.6723679E+01
 6.7075100E+00  1.6657587E+01
 6.7145715E+00  1.6626238E+01
 6.7216325E+00  1.6645206E+01
 6.7286940E+00  1.6658461E+01
 6.7357550E+00  1.6696146E+01
 6.7428164E+00  1.6691576E+01
 6.7498779E+00  1.6684963E+01
 6.7569389E+00  1.6572384E+01
 6.7640004E+00  1.6572033E+01
 6.7710614E+00  1.6627550E+01
 6.7781229E+00  1.6681377E+01
 6.7851839E+00  1.6673615E+01
 6.7922454E+00  1.6625626E+01
 6.7993064E+00  1.6486406E+01
 6.8063679E+00  1.6449112E+01
 6.8134289E+00  1.6542381E+01
 6.8204904E+00  1.6669167E+01
 6.8275514E+00  1.6722349E+01
 6.8346128E+00  1.6729471E+01
 6.8416743E+00  1.6766790E+01
 6.8487353E+00  1.6777884E+01
 6.8557968E+00  1.6803684E+01
 6.8628578E+00  1.6756138E+01
 6.8699193E+00  1.6750072E+01
 6.8769803E+00  1.6699697E+01
 6.8840418E+00  1.6624430E+01
 6.8911028E+00  1.6626028E+01
 6.8981643E+00  1.6619678E+01
 6.9052253E+00  1.6569315E+01
 6.9122868E+00  1.6605232E+01
 6.9193478E+00  1.6496809E+01
 6.9264092E+00  1.6441668E+01
 6.9334707E+00  1.6500063E+01
 6.9405317E+00  1.6556316E+01
 6.9475932E+00  1.6636169E+01
 6.9546542E+00  1.6637251E+01
 6.9617157E+00  1.6575619E+01
 6.9687767E+00  1.6566570E+01
 6.9758382E+00  1.6592413E+01
 6.9828992E+00  1.6488972E+01
 6.9899607E+00  1.6472563E+01
 6.9970217E+00  1.6536592E+01
 7.0040832E+00  1.6628790E+01
 7.0111442E+00  1.6659901E+01
 7.0182056E+00  1.6569916E+01
 7.0252671E+00  1.6547373E+01
 7.0323281E+00  1.6515989E+01
 7.0393896E+00  1.6568621E+01
 7.0464506E+00  1.6648823E+01
 7.0535121E+00  1.6739765E+01
 7.0605731E+00  1.6822863E+01
 7.0676346E+00  1.6894938E+01
 7.0746956E+00  1.7050890E+01
 7.0817571E+00  1.7636667E+01
 7.0888181E+00  1.9233335E+01
 7.0958796E+00  2.2243294E+01
 7.1029410E+00  2.6185795E+01
 7.1100020E+00  2.8990957E+01
 7.1170635E+00  2.9311371E+01
 7.1241245E+00  2.8123497E+01
 7.1311860E+00  2.6235819E+01
 7.1382470E+00  2.3796885E+01
 7.1453085E+00  2.1123583E+01
 7.1523695E+00  1.8995132E+01
 7.1594310E+00  1.7730274E+01
 7.1664920E+00  1.7148710E+01
 7.1735535E+00  1.6765509E+01
 7.1806145E+00  1.6601154E+01
 7.1876760E+00  1.6514721E+01
 7.1947374E+00  1.6588970E+01
 7.2017984E+00  1.6651386E+01
 7.2088599E+00  1.6579771E+01
 7.2159209E+00  1.6566006E+01
 7.2229824E+00  1.6536228E+01
 7.2300434E+00  1.6519100E+01
 7.2371049E+00  1.6534040E+01
 7.2441659E+00  1.6532005E+01
 7.2512274E+00  1.6487471E+01
 7.2582884E+00  1.6390530E+01
 7.2653499E+00  1.6300028E+01
 7.2724109E+00  1.6278748E+01
 7.2794724E+00  1.6263838E+01
 7.2865338E+00  1.6229841E+01
 7.2935948E+00  1.6258013E+01
 7.3006563E+00  1.6407459E+01
 7.3077173E+00  1.6399681E+01
 7.3147788E+00  1.6407511E+01
 7.3218398E+00  1.6416636E+01
 7.3289013E+00  1.6421751E+01
 7.3359623E+00  1.6400555E+01
 7.3430238E+00  1.6362917E+01
 7.3500848E+00  1.6361954E+01
 7.3571463E+00  1.6270777E+01
 7.3642073E+00  1.6270739E+01
 7.3712687E+00  1.6426962E+01
 7.3783302E+00  1.6448763E+01
 7.3853912E+00  1.6419537E+01
 7.3924527E+00  1.6374725E+01
 7.3995137E+00  1.6321032E+01
 7.4065752E+00  1.6260406E+01
 7.4136362E+00  1.6198099E+01
 7.4206977E+00  1.6174339E+01
 7.4277587E+00  1.6231354E+01
 7.4348202E+00  1.6252520E+01
 7.4418812E+00  1.6216217E+01
 7.4489427E+00  1.6252005E+01
 7.4560037E+00  1.6291857E+01
 7.4630651E+00  1.6199808E+01
 7.4701266E+00  1.6196524E+01
 7.4771876E+00  1.6202679E+01
 7.4842491E+00  1.6195814E+01
 7.4913101E+00  1.6216251E+01
 7.4983716E+00  1.6283873E+01
 7.5054326E+00  1.6324667E+01
 7.5124941E+00  1.6308777E+01
 7.5195551E+00  1.6272921E+01
 7.5266166E+00  1.6244812E+01
 7.5336776E+00  1.6302502E+01
 7.5407391E+00  1.6284920E+01
 7.5478005E+00  1.6187988E+01
 7.5548615E+00  1.6166559E+01
 7.5619230E+00  1.6185068E+01
 7.5689840E+00  1.6163853E+01
 7.5760455E+00  1.6135908E+01
 7.5831065E+00  1.6048428E+01
 7.5901680E+00  1.5967156E+01
 7.5972290E+00  1.6059916E+01
 7.6042905E+00  1.6136183E+01
 7.6113515E+00  1.6221157E+01
 7.6184130E+00  1.6204199E+01
 7.6254740E+00  1.6194874E+01
 7.6325355E+00  1.6158100E+01
 7.6395969E+00  1.6232801E+01
 7.6466579E+00  1.6245441E+01
 7.6537194E+00  1.6277819E+01
 7.6607804E+00  1.6214142E+01
 7.6678419E+00  1.6169651E+01
 7.6749029E+00  1.6207817E+01
 7.6819644E+00  1.6223370E+01
 7.6890254E+00  1.6217159E+01
 7.6960869E+00  1.6168049E+01
 7.7031479E+00  1.6148180E+01
 7.7102094E+00  1.6133152E+01
 7.7172704E+00  1.6159609E+01
 7.7243319E+00  1.6156141E+01
 7.7313933E+00  1.6194908E+01
 7.7384543E+00  1.6296413E+01
 7.7455158E+00  1.6329292E+01
 7.7525768E+00  1.6357651E+01
 7.7596383E+00  1.6599243E+01
 7.7666993E+00  1.7247295E+01
 7.7737608E+00  1.8500950E+01
 7.7808218E+00  2.0316408E+01
 7.7878833E+00  2.2391289E+01
 7.7949443E+00  2.3704517E+01
 7.8020058E+00  2.3765619E+01
 7.8090668E+00  2.2961325E+01
 7.8161283E+00  2.1556604E+01
 7.8231897E+00  1.9887529E+01
 7.8302507E+00  1.8360964E+01
 7.8373122E+00  1.7318794E+01
 7.8443732E+00  1.6795317E+01
 7.8514347E+00  1.6431458E+01
 7.8584957E+00  1.6236074E+01
 7.8655572E+00  1.6165306E+01
 7.8726182E+00  1.6079844E+01
 7.8796797E+00  1.6041388E+01
 7.8867407E+00  1.5963059E+01
 7.8938022E+00  1.5940331E+01
 7.9008632E+00  1.5971223E+01
 7.9079247E+00  1.5957211E+01
 7.9149861E+00  1.6038021E+01
 7.9220471E+00  1.6074486E+01
 7.9291086E+00  1.6046865E+01
 7.9361696E+00  1.6053251E+01
 7.9432311E+00  1.5978722E+01
 7.9502921E+00  1.5967264E+01
 7.9573536E+00  1.6002525E+01
 7.9644146E+00  1.6026543E+01
 7.9714761E+00  1.6024910E+01
 7.9785371E+00  1.5930783E+01
 7.9855986E+00  1.5961175E+01
 7.9926600E+00  1.6013964E+01
 7.9997211E+00  1.5994279E+01
 8.0067825E+00  1.5976197E+01
 8.0138435E+00  1.5961169E+01
 8.0209045E+00  1.5953954E+01
 8.0279665E+00  1.6002438E+01
 8.0350275E+00  1.6038244E+01
 8.0420885E+00  1.6007141E+01
 8.0491495E+00  1.5955546E+01
 8.0562115E+00  1.5940481E+01
 8.0632725E+00  1.5996083E+01
 8.0703335E+00  1.5993764E+01
 8.0773945E+00  1.5897848E+01
 8.0844564E+00  1.5817408E+01
 8.0915174E+00  1.5809708E+01
 8.0985785E+00  1.5825273E+01
 8.1056404E+00  1.5891827E+01
 8.1127014E+00  1.5902648E+01
 8.1197624E+00  1.5872724E+01
 8.1268234E+00  1.5823588E+01
 8.1338854E+00  1.5893672E+01
 8.1409464E+00  1.5995786E+01
 8.1480074E+00  1.5980555E+01
 8.1550684E+00  1.5885445E+01
 8.1621304E+00  1.5918119E+01
 8.1691914E+00  1.5939639E+01
 8.1762524E+00  1.5963448E+01
 8.1833143E+00  1.5909388E+01
 8.1903753E+00  1.5863836E+01
 8.1974363E+00  1.5836058E+01
 8.2044973E+00  1.5818923E+01
 8.2115593E+00  1.5885192E+01
 8.2186203E+00  1.5940335E+01
 8.2256813E+00  1.5965768E+01
 8.2327423E+00  1.5945601E+01
 8.2398043E+00  1.5894382E+01
 8.2468653E+00  1.5855277E+01
 8.2539263E+00  1.5873441E+01
 8.2609882E+00  1.5866028E+01
 8.2680492E+00  1.5829559E+01
 8.2751102E+00  1.5795686E+01
 8.2821712E+00  1.5873433E+01
 8.2892332E+00  1.5844571E+01
 8.2962942E+00  1.5835886E+01
 8.3033552E+00  1.5869674E+01
 8.3104162E+00  1.5866724E+01
 8.3174782E+00  1.5882127E+01
 8.3245392E+00  1.5858002E+01
 8.3316002E+00  1.5792918E+01
 8.3386612E+00  1.5806349E+01
 8.3457232E+00  1.5852582E+01
 8.3527842E+00  1.5850008E+01
 8.3598452E+00  1.5823175E+01
 8.3669071E+00  1.5853232E+01
 8.3739681E+00  1.5823116E+01
 8.3810291E+00  1.5794994E+01
 8.3880901E+00  1.5781649E+01
 8.3951521E+00  1.5861465E+01
 8.4022131E+00  1.5824034E+01
 8.4092741E+00  1.5824284E+01
 8.4163351E+00  1.5865161E+01
 8.4233971E+00  1.5950045E+01
 8.4304581E+00  1.5884768E+01
 8.4375191E+00  1.5776337E+01
 8.4445810E+00  1.5749768E+01
 8.4516420E+00  1.5733820E+01
 8.4587030E+00  1.5754238E+01
 8.4657640E+00  1.5691739E+01
 8.4728260E+00  1.5672363E+01
 8.4798870E+00  1.5726260E+01
 8.4869480E+00  1.5740017E+01
 8.4940090E+00  1.5756063E+01
 8.5010710E+00  1.5799989E+01
 8.5081320E+00  1.5786001E+01
 8.5151930E+00  1.5822303E+01
 8.5222540E+00  1.5818385E+01
 8.5293159E+00  1.5818815E+01
 8.5363770E+00  1.5888435E+01
 8.5434380E+00  1.5836342E+01
 8.5504999E+00  1.5845225E+01
 8.5575609E+00  1.5840608E+01
 8.5646219E+00  1.5905428E+01
 8.5716829E+00  1.5877660E+01
 8.5787449E+00  1.5946538E+01
 8.5858059E+00  1.5900194E+01
 8.5928669E+00  1.5825130E+01
 8.5999279E+00  1.5813542E+01
 8.6069899E+00  1.5858359E+01
 8.6140509E+00  1.5889553E+01
 8.6211119E+00  1.5811375E+01
 8.6281738E+00  1.5828881E+01
 8.6352348E+00  1.5828545E+01
 8.6422958E+00  1.5798167E+01
 8.6493568E+00  1.5750409E+01
 8.6564188E+00  1.5704034E+01
 8.6634798E+00  1.5741893E+01
 8.6705408E+00  1.5767161E+01
 8.6776018E+00  1.5791412E+01
 8.6846638E+00  1.5780404E+01
 8.6917248E+00  1.5770686E+01
 8.6987858E+00  1.5746410E+01
 8.7058477E+00  1.5712685E+01
 8.7129087E+00  1.5691471E+01
 8.7199697E+00  1.5727316E+01
 8.7270308E+00  1.5661574E+01
 8.7340927E+00  1.5674061E+01
 8.7411537E+00  1.5688756E+01
 8.7482147E+00  1.5723759E+01
 8.7552757E+00  1.5698793E+01
 8.7623377E+00  1.5645192E+01
 8.7693987E+00  1.5630844E+01
 8.7764597E+00  1.5630161E+01
 8.7835207E+00  1.5640902E+01
 8.7905827E+00  1.5672168E+01
 8.7976437E+00  1.5703512E+01
 8.8047047E+00  1.5679697E+01
 8.8117666E+00  1.5639227E+01
 8.8188276E+00  1.5621950E+01
 8.8258886E+00  1.5606873E+01
 8.8329496E+00  1.5558778E+01
 8.8400116E+00  1.5538807E+01
 8.8470726E+00  1.5587798E+01
 8.8541336E+00  1.5596230E+01
 8.8611946E+00  1.5615003E+01
 8.8682566E+00  1.5624851E+01
 8.8753176E+00  1.5683878E+01
 8.8823786E+00  1.5663171E+01
 8.8894405E+00  1.5622180E+01
 8.8965015E+00  1.5606385E+01
 8.9035625E+00  1.5548594E+01
 8.9106236E+00  1.5603486E+01
 8.9176855E+00  1.5638157E+01
 8.9247465E+00  1.5648550E+01
 8.9318075E+00  1.5619807E+01
 8.9388685E+00  1.5649316E+01
 8.9459305E+00  1.5708736E+01
 8.9529915E+00  1.5751740E+01
 8.9600525E+00  1.5800396E+01
 8.9671135E+00  1.5893241E+01
 8.9741755E+00  1.6017353E+01
 8.9812365E+00  1.6357948E+01
 8.9882975E+00  1.6832184E+01
 8.9953594E+00  1.7332899E+01
 9.0024204E+00  1.7644648E+01
 9.0094814E+00  1.7539326E+01
 9.0165424E+00  1.7261303E+01
 9.0236044E+00  1.6948994E+01
 9.0306654E+00  1.6711603E+01
 9.0377264E+00  1.6328053E+01
 9.0447874E+00  1.5972034E+01
 9.0518494E+00  1.5785300E+01
 9.0589104E+00  1.5711538E+01
 9.0659714E+00  1.5699426E+01
 9.0730333E+00  1.5689151E+01
 9.0800943E+00  1.5661627E+01
 9.0871553E+00  1.5665874E+01
 9.0942163E+00  1.5658286E+01
 9.1012783E+00  1.5590896E+01
 9.1083393E+00  1.5586276E+01
 9.1154003E+00  1.5606853E+01
 9.1224613E+00  1.5611766E+01
 9.1295233E+00  1.5661219E+01
 9.1365843E+00  1.5698307E+01
 9.1436453E+00  1.5622337E+01
 9.1507072E+00  1.5567680E+01
 9.1577682E+00  1.5570561E+01
 9.1648293E+00  1.5563692E+01
 9.1718903E+00  1.5523889E+01
 9.1789522E+00  1.5507420E+01
 9.1860132E+00  1.5477569E+01
 9.1930742E+00  1.5478009E+01
 9.2001352E+00  1.5504533E+01
 9.2071972E+00  1.5504226E+01
 9.2142582E+00  1.5469116E+01
 9.2213192E+00  1.5509566E+01
 9.2283802E+00  1.5574114E+01
 9.2354422E+00  1.5520290E+01
 9.2425032E+00  1.5567421E+01
 9.2495642E+00  1.5496617E+01
 9.2566261E+00  1.5534021E+01
 9.2636871E+00  1.5575793E+01
 9.2707481E+00  1.5556089E+01
 9.2778091E+00  1.5535001E+01
 9.2848711E+00  1.5560182E+01
 9.2919321E+00  1.5518884E+01
 9.2989931E+00  1.5507706E+01
 9.3060541E+00  1.5544383E+01
 9.3131161E+00  1.5528647E+01
 9.3201771E+00  1.5484332E+01
 9.3272381E+00  1.5387806E+01
 9.3343000E+00  1.5326232E+01
 9.3413610E+00  1.5346193E+01
 9.3484221E+00  1.5382857E+01
 9.3554831E+00  1.5445644E+01
 9.3625450E+00  1.5417849E+01
 9.3696060E+00  1.5421114E+01
 9.3766670E+00  1.5461389E+01
 9.3837280E+00  1.5510565E+01
 9.3907900E+00  1.5497561E+01
 9.3978510E+00  1.5486394E+01
 9.4049120E+00  1.5481028E+01
 9.4119740E+00  1.5450292E+01
 9.4190350E+00  1.5485538E+01
 9.4260960E+00  1.5484204E+01
 9.4331570E+00  1.5441016E+01
 9.4402189E+00  1.5413256E+01
 9.4472799E+00  1.5363940E+01
 9.4543409E+00  1.5414561E+01
 9.4614019E+00  1.5469921E+01
 9.4684639E+00  1.5492967E+01
 9.4755249E+00  1.5459832E+01
 9.4825859E+00  1.5448133E+01
 9.4896469E+00  1.5461308E+01
 9.4967089E+00  1.5535876E+01
 9.5037699E+00  1.5628712E+01
 9.5108309E+00  1.5724898E+01
 9.5178928E+00  1.5966179E+01
 9.5249538E+00  1.6677654E+01
 9.5320148E+00  1.8196358E+01
 9.5390759E+00  2.0312864E+01
 9.5461378E+00  2.2234221E+01
 9.5531988E+00  2.3289490E+01
 9.5602598E+00  2.3217266E+01
 9.5673208E+00  2.2196390E+01
 9.5743828E+00  2.0471312E+01
 9.5814438E+00  1.8771067E+01
 9.5885048E+00  1.7372011E+01
 9.5955667E+00  1.6426037E+01
 9.6026278E+00  1.5866239E+01
 9.6096888E+00  1.5616503E+01
 9.6167498E+00  1.5491898E+01
 9.6238117E+00  1.5411396E+01
 9.6308727E+00  1.5373641E+01
 9.6379337E+00  1.5370904E+01
 9.6449947E+00  1.5356010E+01
 9.6520567E+00  1.5291184E+01
 9.6591177E+00  1.5250008E+01
 9.6661787E+00  1.5186943E+01
 9.6732397E+00  1.5194761E+01
 9.6803017E+00  1.5180301E+01
 9.6873627E+00  1.5219674E+01
 9.6944237E+00  1.5211881E+01
 9.7014856E+00  1.5219978E+01
 9.7085466E+00  1.5256171E+01
 9.7156076E+00  1.5228600E+01
 9.7226686E+00  1.5175532E+01
 9.7297306E+00  1.5148808E+01
 9.7367916E+00  1.5213432E+01
 9.7438526E+00  1.5240840E+01
 9.7509136E+00  1.5170360E+01
 9.7579756E+00  1.5142113E+01
 9.7650366E+00  1.5166089E+01
 9.7720976E+00  1.5239325E+01
 9.7791595E+00  1.5176126E+01
 9.7862206E+00  1.5113740E+01
 9.7932816E+00  1.5098215E+01
 9.8003426E+00  1.5147272E+01
 9.8074045E+00  1.5132944E+01
 9.8144655E+00  1.5109441E+01
 9.8215265E+00  1.5163040E+01
 9.8285875E+00  1.5156374E+01
 9.8356495E+00  1.5064741E+01
 9.8427105E+00  1.5023435E+01
 9.8497715E+00  1.4970713E+01
 9.8568335E+00  1.4953778E+01
 9.8638945E+00  1.4908788E+01
 9.8709555E+00  1.4955741E+01
 9.8780165E+00  1.5002696E+01
 9.8850784E+00  1.4995382E+01
 9.8921394E+00  1.5004251E+01
 9.8992004E+00  1.5002672E+01
 9.9062614E+00  1.4921445E+01
 9.9133234E+00  1.4873450E+01
 9.9203844E+00  1.4931299E+01
 9.9274454E+00  1.4948593E+01
 9.9345064E+00  1.4932776E+01
 9.9415684E+00  1.4976207E+01
 9.9486294E+00  1.4971657E+01
 9.9556904E+00  1.4916563E+01
 9.9627523E+00  1.4955635E+01
 9.9698133E+00  1.4963582E+01
 9.9768744E+00  1.4858235E+01
 9.9839354E+00  1.4848083E+01
 9.9909973E+00  1.4903644E+01
 9.9980583E+00  1.4920833E+01
 1.0005119E+01  1.4962420E+01
 1.0012180E+01  1.4988585E+01
 1.0019242E+01  1.5068104E+01
 1.0026303E+01  1.5160365E+01
 1.0033364E+01  1.5333630E+01
 1.0040426E+01  1.5738171E+01
 1.0047487E+01  1.6739828E+01
 1.0054548E+01  1.8277321E+01
 1.0061609E+01  1.9347229E+01
 1.0068671E+01  1.9779802E+01
 1.0075732E+01  1.9397373E+01
 1.0082793E+01  1.8798595E+01
 1.0089854E+01  1.8045010E+01
 1.0096916E+01  1.7261093E+01
 1.0103977E+01  1.6522657E+01
 1.0111038E+01  1.5900573E+01
 1.0118099E+01  1.5399360E+01
 1.0125161E+01  1.5140046E+01
 1.0132222E+01  1.4919025E+01
 1.0139283E+01  1.4802002E+01
 1.0146345E+01  1.4768872E+01
 1.0153406E+01  1.4722979E+01
 1.0160467E+01  1.4735921E+01
 1.0167528E+01  1.4660815E+01
 1.0174590E+01  1.4701015E+01
 1.0181651E+01  1.4724537E+01
 1.0188712E+01  1.4660465E+01
 1.0195773E+01  1.4603396E+01
 1.0202835E+01  1.4569929E+01
 1.0209896E+01  1.4590878E+01
 1.0216957E+01  1.4610394E+01
 1.0224019E+01  1.4625197E+01
 1.0231080E+01  1.4594125E+01
 1.0238141E+01  1.4585183E+01
 1.0245202E+01  1.4601678E+01
 1.0252264E+01  1.4621606E+01
 1.0259325E+01  1.4640608E+01
 1.0266386E+01  1.4602792E+01
 1.0273447E+01  1.4579400E+01
 1.0280509E+01  1.4530356E+01
 1.0287570E+01  1.4532290E+01
 1.0294631E+01  1.4502802E+01
 1.0301693E+01  1.4474330E+01
 1.0308754E+01  1.4515342E+01
 1.0315815E+01  1.4512608E+01
 1.0322876E+01  1.4517122E+01
 1.0329938E+01  1.4461325E+01
 1.0336999E+01  1.4464581E+01
 1.0344060E+01  1.4490299E+01
 1.0351121E+01  1.4518162E+01
 1.0358183E+01  1.4501248E+01
 1.0365244E+01  1.4465406E+01
 1.0372305E+01  1.4453074E+01
 1.0379366E+01  1.4381927E+01
 1.0386428E+01  1.4359336E+01
 1.0393489E+01  1.4337277E+01
 1.0400550E+01  1.4322587E+01
 1.0407612E+01  1.4402209E+01
 1.0414673E+01  1.4453652E+01
 1.0421734E+01  1.4459997E+01
 1.0428795E+01  1.4421794E+01
 1.0435857E+01  1.4342220E+01
 1.0442918E+01  1.4292184E+01
 1.0449979E+01  1.4286690E+01
 1.0457040E+01  1.4239800E+01
 1.0464102E+01  1.4243268E+01
 1.0471163E+01  1.4239806E+01
 1.0478224E+01  1.4257405E+01
 1.0485286E+01  1.4269177E+01
 1.0492347E+01  1.4282438E+01
 1.0499408E+01  1.4302313E+01
 1.0506469E+01  1.4304513E+01
 1.0513531E+01  1.4332335E+01
 1.0520592E+01  1.4372211E+01
 1.0527653E+01  1.4458296E+01
 1.0534714E+01  1.4711701E+01
 1.0541776E+01  1.5100054E+01
 1.0548837E+01  1.5936090E+01
 1.0555898E+01  1.6925833E+01
 1.0562959E+01  1.7549913E+01
 1.0570021E+01  1.7596197E+01
 1.0577082E+01  1.7247749E+01
 1.0584143E+01  1.6728807E+01
 1.0591205E+01  1.6381075E+01
 1.0598266E+01  1.6014011E+01
 1.0605327E+01  1.5379896E+01
 1.0612388E+01  1.4859975E+01
 1.0619450E+01  1.4522060E+01
 1.0626511E+01  1.4312634E+01
 1.0633572E+01  1.4187574E+01
 1.0640633E+01  1.4150774E+01
 1.0647695E+01  1.4058585E+01
 1.0654756E+01  1.4051436E+01
 1.0661817E+01  1.3951059E+01
 1.0668879E+01  1.3958500E+01
 1.0675940E+01  1.3983358E+01
 1.0683001E+01  1.3963718E+01
 1.0690062E+01  1.3921886E+01
 1.0697124E+01  1.3949259E+01
 1.0704185E+01  1.3999950E+01
 1.0711246E+01  1.4006842E+01
 1.0718307E+01  1.3940523E+01
 1.0725368E+01  1.3921480E+01
 1.0732430E+01  1.3884912E+01
 1.0739491E+01  1.3883058E+01
 1.0746552E+01  1.3874244E+01
 1.0753613E+01  1.3877283E+01
 1.0760674E+01  1.3897559E+01
 1.0767735E+01  1.3923643E+01
 1.0774797E+01  1.3938959E+01
 1.0781858E+01  1.3918976E+01
 1.0788919E+01  1.3860406E+01
 1.0795980E+01  1.3821735E+01
 1.0803042E+01  1.3811754E+01
 1.0810103E+01  1.3817415E+01
 1.0817164E+01  1.3838703E+01
 1.0824225E+01  1.3830281E+01
 1.0831287E+01  1.3795715E+01
 1.0838348E+01  1.3772402E+01
 1.0845409E+01  1.3781635E+01
 1.0852471E+01  1.3796790E+01
 1.0859532E+01  1.3741908E+01
 1.0866593E+01  1.3753939E+01
 1.0873654E+01  1.3796803E+01
 1.0880716E+01  1.3788708E+01
 1.0887777E+01  1.3733380E+01
 1.0894838E+01  1.3689545E+01
 1.0901899E+01  1.3720280E+01
 1.0908961E+01  1.3765087E+01
 1.0916022E+01  1.3783727E+01
 1.0923083E+01  1.3799337E+01
 1.0930145E+01  1.3788566E+01
 1.0937206E+01  1.3738654E+01
 1.0944267E+01  1.3714297E+01
 1.0951328E+01  1.3765951E+01
 1.0958390E+01  1.3772755E+01
 1.0965451E+01  1.3732466E+01
 1.0972512E+01  1.3675271E+01
 1.0979573E+01  1.3695817E+01
 1.0986635E+01  1.3664536E+01
 1.0993696E+01  1.3729988E+01
 1.1000757E+01  1.3745586E+01
 1.1007818E+01  1.3728848E+01
 1.1014880E+01  1.3791430E+01
 1.1021941E+01  1.3892105E+01
 1.1029002E+01  1.3943552E+01
 1.1036064E+01  1.3915380E+01
 1.1043125E+01  1.3840640E+01
 1.1050186E+01  1.3821010E+01
 1.1057247E+01  1.3803454E+01
 1.1064309E+01  1.3759494E+01
 1.1071370E+01  1.3632339E+01
 1.1078431E+01  1.3569227E+01
 1.1085492E+01  1.3538843E+01
 1.1092554E+01  1.3561512E+01
 1.1099615E+01  1.3527885E+01
 1.1106676E+01  1.3525372E+01
 1.1113738E+01  1.3525767E+01
 1.1120799E+01  1.3484045E+01
 1.1127860E+01  1.3396775E+01
 1.1134921E+01  1.3398836E+01
 1.1141983E+01  1.3445400E+01
 1.1149044E+01  1.3395195E+01
 1.1156105E+01  1.3389661E+01
 1.1163166E+01  1.3377394E+01
 1.1170228E+01  1.3289177E+01
 1.1177289E+01  1.3272616E+01
 1.1184350E+01  1.3349757E+01
 1.1191412E+01  1.3411343E+01
 1.1198473E+01  1.3347280E+01
 1.1205534E+01  1.3366405E+01
 1.1212595E+01  1.3400565E+01
 1.1219657E+01  1.3438586E+01
 1.1226718E+01  1.3413939E+01
 1.1233779E+01  1.3405645E+01
 1.1240840E+01  1.3423785E+01
 1.1247902E+01  1.3480417E+01
 1.1254963E+01  1.3432683E+01
 1.1262024E+01  1.3131189E+01
 1.1269085E+01  1.2818843E+01
 1.1276147E+01  1.2620537E+01
 1.1283208E+01  1.2402663E+01
 1.1290269E+01  1.2230401E+01
 1.1297331E+01  1.2030534E+01
 1.1304392E+01  1.1928760E+01
